****
*
* 11
****

Solving ODY y''(x) + y(x) = 0
*****************************

Problem 1: Initial value problem using Runge-Kutta RK4
******************************************************

(a) N = 300
***********

x        y(x)

0.000000 1.000000
0.033333 0.999444
0.066667 0.997779
0.100000 0.995004
0.133333 0.991124
0.166667 0.986143
0.200000 0.980067
0.233333 0.972901
0.266667 0.964655
0.300000 0.955336
0.333333 0.944957
0.366667 0.933528
0.400000 0.921061
0.433333 0.907571
0.466667 0.893073
0.500000 0.877583
0.533333 0.861117
0.566667 0.843695
0.600000 0.825336
0.633333 0.806059
0.666667 0.785887
0.700000 0.764842
0.733333 0.742947
0.766667 0.720227
0.800000 0.696707
0.833333 0.672412
0.866667 0.647371
0.900000 0.621610
0.933333 0.595159
0.966667 0.568046
1.000000 0.540302
1.033333 0.511958
1.066667 0.483046
1.100000 0.453596
1.133333 0.423643
1.166667 0.393219
1.200000 0.362358
1.233333 0.331094
1.266667 0.299463
1.300000 0.267499
1.333333 0.235238
1.366667 0.202715
1.400000 0.169967
1.433333 0.137030
1.466667 0.103942
1.500000 0.070737
1.533333 0.037454
1.566667 0.004130
1.600000 -0.029200
1.633333 -0.062496
1.666667 -0.095724
1.700000 -0.128844
1.733333 -0.161822
1.766667 -0.194620
1.800000 -0.227202
1.833333 -0.259531
1.866667 -0.291572
1.900000 -0.323290
1.933333 -0.354647
1.966667 -0.385611
2.000000 -0.416147
2.033333 -0.446220
2.066667 -0.475797
2.100000 -0.504846
2.133333 -0.533334
2.166667 -0.561229
2.200000 -0.588501
2.233333 -0.615119
2.266667 -0.641054
2.300000 -0.666276
2.333333 -0.690758
2.366667 -0.714473
2.400000 -0.737394
2.433333 -0.759495
2.466667 -0.780753
2.500000 -0.801144
2.533333 -0.820644
2.566667 -0.839233
2.600000 -0.856889
2.633333 -0.873593
2.666667 -0.889327
2.700000 -0.904072
2.733333 -0.917813
2.766667 -0.930535
2.800000 -0.942222
2.833333 -0.952863
2.866667 -0.962445
2.900000 -0.970958
2.933333 -0.978392
2.966667 -0.984739
3.000000 -0.989992
3.033333 -0.994146
3.066667 -0.997194
3.100000 -0.999135
3.133333 -0.999966
3.166667 -0.999686
3.200000 -0.998295
3.233333 -0.995795
3.266667 -0.992188
3.300000 -0.987480
3.333333 -0.981674
3.366667 -0.974778
3.400000 -0.966798
3.433333 -0.957745
3.466667 -0.947627
3.500000 -0.936457
3.533333 -0.924246
3.566667 -0.911008
3.600000 -0.896758
3.633333 -0.881512
3.666667 -0.865287
3.700000 -0.848100
3.733333 -0.829971
3.766667 -0.810920
3.800000 -0.790968
3.833333 -0.770137
3.866667 -0.748450
3.900000 -0.725932
3.933333 -0.702608
3.966667 -0.678503
4.000000 -0.653644
4.033333 -0.628058
4.066667 -0.601776
4.100000 -0.574824
4.133333 -0.547234
4.166667 -0.519036
4.200000 -0.490261
4.233333 -0.460941
4.266667 -0.431110
4.300000 -0.400799
4.333333 -0.370043
4.366667 -0.338876
4.400000 -0.307333
4.433333 -0.275448
4.466667 -0.243257
4.500000 -0.210796
4.533333 -0.178100
4.566667 -0.145207
4.600000 -0.112153
4.633333 -0.078973
4.666667 -0.045706
4.700000 -0.012389
4.733333 0.020943
4.766667 0.054251
4.800000 0.087499
4.833333 0.120650
4.866667 0.153666
4.900000 0.186512
4.933333 0.219151
4.966667 0.251546
5.000000 0.283662
5.033333 0.315463
5.066667 0.346913
5.100000 0.377978
5.133333 0.408623
5.166667 0.438813
5.200000 0.468517
5.233333 0.497699
5.266667 0.526329
5.300000 0.554374
5.333333 0.581803
5.366667 0.608586
5.400000 0.634693
5.433333 0.660094
5.466667 0.684762
5.500000 0.708670
5.533333 0.731790
5.566667 0.754097
5.600000 0.775566
5.633333 0.796173
5.666667 0.815896
5.700000 0.834713
5.733333 0.852602
5.766667 0.869544
5.800000 0.885519
5.833333 0.900511
5.866667 0.914503
5.900000 0.927478
5.933333 0.939423
5.966667 0.950325
6.000000 0.960170
6.033333 0.968949
6.066667 0.976651
6.100000 0.983268
6.133333 0.988793
6.166667 0.993219
6.200000 0.996542
6.233333 0.998758
6.266667 0.999864
6.300000 0.999859
6.333333 0.998743
6.366667 0.996517
6.400000 0.993185
6.433333 0.988749
6.466667 0.983214
6.500000 0.976588
6.533333 0.968876
6.566667 0.960088
6.600000 0.950233
6.633333 0.939322
6.666667 0.927368
6.700000 0.914383
6.733333 0.900383
6.766667 0.885382
6.800000 0.869398
6.833333 0.852447
6.866667 0.834550
6.900000 0.815725
6.933333 0.795994
6.966667 0.775379
7.000000 0.753902
7.033333 0.731588
7.066667 0.708461
7.100000 0.684547
7.133333 0.659872
7.166667 0.634464
7.200000 0.608351
7.233333 0.581563
7.266667 0.554128
7.300000 0.526078
7.333333 0.497443
7.366667 0.468255
7.400000 0.438547
7.433333 0.408352
7.466667 0.377704
7.500000 0.346635
7.533333 0.315182
7.566667 0.283378
7.600000 0.251260
7.633333 0.218862
7.666667 0.186222
7.700000 0.153374
7.733333 0.120356
7.766667 0.087204
7.800000 0.053956
7.833333 0.020647
7.866667 -0.012685
7.900000 -0.046002
7.933333 -0.079268
7.966667 -0.112447
8.000000 -0.145500
8.033333 -0.178392
8.066667 -0.211085
8.100000 -0.243544
8.133333 -0.275732
8.166667 -0.307614
8.200000 -0.339155
8.233333 -0.370318
8.266667 -0.401070
8.300000 -0.431377
8.333333 -0.461204
8.366667 -0.490519
8.400000 -0.519289
8.433333 -0.547481
8.466667 -0.575066
8.500000 -0.602012
8.533333 -0.628289
8.566667 -0.653868
8.600000 -0.678720
8.633333 -0.702818
8.666667 -0.726136
8.700000 -0.748647
8.733333 -0.770326
8.766667 -0.791149
8.800000 -0.811093
8.833333 -0.830136
8.866667 -0.848257
8.900000 -0.865435
8.933333 -0.881652
8.966667 -0.896889
9.000000 -0.911130
9.033333 -0.924359
9.066667 -0.936560
9.100000 -0.947722
9.133333 -0.957830
9.166667 -0.966874
9.200000 -0.974844
9.233333 -0.981730
9.266667 -0.987526
9.300000 -0.992225
9.333333 -0.995822
9.366667 -0.998312
9.400000 -0.999693
9.433333 -0.999963
9.466667 -0.999123
9.500000 -0.997172
9.533333 -0.994114
9.566667 -0.989951
9.600000 -0.984688
9.633333 -0.978331
9.666667 -0.970887
9.700000 -0.962365
9.733333 -0.952773
9.766667 -0.942123
9.800000 -0.930426
9.833333 -0.917696
9.866667 -0.903946
9.900000 -0.889191
9.933333 -0.873449
9.966667 -0.856736
10.000000 -0.839072
